time,x,y,radius,v_x,v_y,a_x,a_y,total_energy
0,149600000000.0,0.0,149600000000.0,0.0,29800.0,-0.005927853062712689,-0.0,-442786818.18181825
216000.0,149461715043.75305,6436800000.0,149600256209.87433,-1280.4162615459406,29800.0,-0.005922343136258252,-0.00025505486999334706,-441965566.5085156
432000.0,149046988710.57648,12867650079.992796,149601407955.5131,-2559.642378977723,29744.90814808144,-0.005905773416327546,-0.000509862201379946,-441142807.1839364
648000.0,148356336074.46118,19280656174.544594,149603964372.47067,-3835.2894369044734,29634.77791258337,-0.0058781059513034525,-0.0007639292180129278,-440318565.0905761
864000.0,147390789100.4578,25663947262.864796,149608431917.3446,-5104.9603223860195,29469.769201492578,-0.005839326350988059,-0.0010167539263276038,-439492879.4906212
1080000.0,146151897865.70657,32005698574.793823,149615313357.31808,-6366.25481419944,29250.150353405814,-0.0057894450577277625,-0.0012678263925332352,-438665804.1126528
1296000.0,144641730651.53284,38294155197.044464,149625106743.9081,-7616.774946668636,28976.299852618635,-0.005728498541343696,-0.0015166301675189032,-437837407.197689
1512000.0,142862872849.07993,44517656016.66221,149638304373.94778,-8854.130631598875,28648.707736434553,-0.0056565504014317106,-0.0017626438555373848,-437007771.50031596
1728000.0,140818424624.88998,50664657931.870094,149655391741.1238,-10075.945518308125,28267.976663638477,-0.005573692360562128,-0.002005342820853038,-436176994.24083215
1944000.0,138511997297.54822,56723760253.89114,149676846481.6684,-11279.863068189545,27834.82261433422,-0.005480045132102269,-0.0022442010245951063,-435345187.00458246
2160000.0,135947708381.9776,62683729217.08558,149703137318.06735,-12463.552816723635,27350.07519302168,-0.005375759146821697,-0.00247869298207541,-434512475.58497024
2376000.0,133130175264.18823,68533522508.8924,149734723004.88733,-13624.716792437122,26814.67750889339,-0.005261015123134213,-0.002708295828841523,-433678999.7670168
2592000.0,130064507476.22934,74262313725.71815,149772051281.0421,-14761.096059034113,26229.68560986362,-0.005136024466791298,-0.0029324914817789698,-432844913.04878026
2808000.0,126756297548.71666,79859516656.16176,149815557833.00534,-15870.477343861034,25596.26744979936,-0.005001029487072231,-0.003150768879686676,-432010382.29845536
3024000.0,123211610426.56825,85314809288.8931,149865665273.63306,-16950.699713068636,24915.70137178704,-0.004856303418014738,-0.0033626262859688095,-431175587.34554386
3240000.0,119436971442.40997,90618157439.20001,149922782141.37668,-17999.66125135982,24189.374094017778,-0.004702150234988559,-0.003567573634453895,-430340720.5051106
3456000.0,115439352851.43445,95759837885.76332,149987301924.74847,-19015.32570211735,23418.778188975735,-0.004538904258917513,-0.003765134897908784,-429505986.03480744
3672000.0,111226158941.22507,100730460907.68365,150059602116.93567,-19995.72902204353,22605.50905102744,-0.00436692954268284,-0.003954850457600255,-428671599.5250713
3888000.0,106805209740.09196,105520992111.23068,150140043305.45346,-20938.985803263025,21751.261352185782,-0.004186619036662864,-0.0041362794513065656,-427837787.22363377
4104000.0,102184723357.69989,110122773436.26273,150228968301.6698,-21843.295515182203,20857.824990703564,-0.0039983935329479066,-0.004309002076528708,-427004785.296256
4320000.0,97373297002.08392,114527543233.81343,150326701314.9329,-22706.948518298952,19927.080542173364,-0.003802700390474085,-0.00447262182532383,-426172839.02637404
4536000.0,92379886727.42236,118727455308.98174,150433547175.87976,-23528.331802641354,18960.994227903415,-0.003600012046100451,-0.00462676762720375,-425342201.9571065
4752000.0,87213785977.0404,122715096827.00146,150549790613.30292,-24305.93440459905,17961.612420427406,-0.0033908243194614726,-0.004771095876924875,-424513134.979838
4968000.0,81884602995.9226,126483504985.19688,150675695588.7053,-25038.35245760273,16931.05571101163,-0.003175654522208767,-0.004905292324749458,-423685905.3743073
5184000.0,76402237196.38632,130026182359.42363,150811504692.37738,-25724.293834399825,15871.512568865748,-0.0029550393849587017,-0.005029073807881802,-422860785.80581605
5400000.0,70776854569.38364,133337110840.50836,150957438604.4944,-26362.582341550904,14785.232626363279,-0.00272953281783142,-0.005142189803266961,-422038053.2857886
5616000.0,65018862242.03427,136410764084.07222,151113695624.35114,-26952.16143020249,13674.519628857615,-0.0024997035228495157,-0.005244423783766305,-421217988.10246986
5832000.0,59138882289.3295,139242118405.87775,151280451270.43893,-27492.097391137984,12541.724091564094,-0.002266132478610337,-0.005335594361867052,-420400872.7290215
6048000.0,53147724914.382675,141826662064.38196,151457857953.6212,-27981.582006517816,11389.235709400811,-0.002029410319509148,-0.005415556207507636,-419586990.71664673
6264000.0,47056361117.04131,144160402882.40378,151646044725.19012,-28419.93463553179,10219.475568579162,-0.0017901346333304411,-0.00548420072926554,-418776625.5806693
6480000.0,40875894975.040115,146239874170.60458,151845117101.0934,-28806.603716331167,9034.888211057805,-0.0015489072022080014,-0.005541456511011084,-417970059.68764794
6696000.0,34617535665.09947,148062138926.70422,152055156963.10696,-29141.167672008094,7837.933604679411,-0.0013063312127552578,-0.005587289499126836,-417167573.15169495
6912000.0,28292569353.41457,149624792295.87933,152276222537.21295,-29423.33521396323,6631.079072868014,-0.0010630084615687089,-0.005621702938470825,-416369442.7480924
7128000.0,21912331085.807037,150925962289.47018,152508348448.91803,-29652.94504166207,5416.7912381583155,-0.0008195365823010085,-0.005644737058364312,-415575940.8521674
7344000.0,15488176807.416111,151964308770.81485,152751545854.72888,-29829.96494343909,4197.528033551624,-0.0005765063200880122,-0.005656468512951885,-414787334.4110998
7560000.0,9031455640.198254,152739020728.59186,153005802648.49463,-29954.4903085781,2975.7308347540165,-0.0003344988783064892,-0.005657009583255181,-414003883.95597446
7776000.0,2553482543.7122498,153249811869.34055,153271083740.83258,-30026.742066292303,1753.8167647708974,-9.408336145617712e-05,-0.00564650715106635,-413225842.66091657
7992000.0,-3934488519.2629375,153496914571.711,153547331409.3845,-30047.064072366837,534.1712201405658,0.00014418566357068634,-0.0056251414574520564,-412453455.4555972
8208000.0,-10421290795.734398,153481072255.34192,153834465717.20767,-30015.919969035567,-680.8593346690784,0.0003797704674116992,-0.0055931246610178105,-411686958.1967614
8424000.0,-16895870223.582302,153203530226.96118,154132384996.19586,-29933.88954807464,-1888.9742614489255,0.000612152301040558,-0.005550699213176525,-410926576.9037337
8640000.0,-23347310077.08775,152666025075.24323,154440966392.0505,-29801.66465104988,-3087.925291495055,0.0008408333654854939,-0.005498136069443145,-410172527.06211185
8856000.0,-29764854680.964478,151870772694.05234,154760066466.9909,-29620.04464410501,-4275.522682494774,0.0010653385949974596,-0.005435732757214914,-409425012.99907196
9072000.0,-36137932105.34705,150820455020.87314,155089521856.10056,-29389.93150758556,-5449.640958053195,0.0012852172428356975,-0.0053638113215800556,-408684227.332902
9288000.0,-42456175763.14466,149518205583.42383,155429149972.96365,-29112.32458313305,-6608.224203514487,0.0015000442615359735,-0.00528271617141898,-407950350.4985649
9504000.0,-48709444840.56829,147967593952.61783,155778749760.0464,-28788.31502264128,-7749.290896540987,0.0017094214722397835,-0.005192811848424086,-407223550.3502815
9720000.0,-54887843501.3544,146172609204.16492,156138102479.12805,-28419.079984637487,-8870.93825580059,0.001912978520340998,-0.005094480741675821,-406503981.8413286
9936000.0,-60981738815.11358,144137642494.17017,156506972536.98294,-28005.876624243832,-9971.346096002566,0.0021103736173029245,-0.0049881207700910824,-405791786.7804899
10152000.0,-66981777370.2058,141867468856.10895,156885108341.4575,-27550.0359229064,-11048.78018234224,0.002301294070971055,-0.004874143054428047,-405087093.6638724
10368000.0,-72878900541.46597,139367228327.54932,157272243183.0746,-27052.956403576653,-12101.595082098698,0.002485456609017585,-0.004752969599617981,-404390017.58013433
10584000.0,-78664358392.86337,136642406514.99611,157668096137.3299,-26516.097776028855,-13128.236515616181,0.0026626075022714055,-0.004625031007031705,-403700660.18655246
10800000.0,-84329722204.67262,133698814704.29099,158072372982.91434,-25940.974555538232,-14127.243213135029,0.0028325224965866443,-0.0044907642349127745,-403019109.7528216
11016000.0,-89866895623.86852,130542569622.18176,158484767131.2087,-25329.14969627552,-15097.248287876188,0.0029950065635645003,-0.004350610423658248,-402345441.26899123
11232000.0,-95268124445.14919,127180072952.0374,158904960562.53873,-24682.228278545586,-16036.980139386369,0.0031498934818549205,-0.004205012800940615,-401679716.6135433
11448000.0,-100526005038.17032,123617990703.3096,159332624764.85403,-24001.851286464924,-16945.262904389543,0.0032970452619197673,-0.004054414679879405,-401021984.77728707
11664000.0,-105633491444.17667,119863232530.30923,159767421670.69583,-23289.689509890253,-17821.016475243494,0.0034363514280370483,-0.003899257561626035,-400372282.13848776
11880000.0,-110583901172.1997,115922931091.25903,160209004588.54245,-22547.437601434252,-18663.256108554717,0.0035677281719710993,-0.0037399793518563423,-399730632.78446096
12096000.0,-115370919731.31377,111804421533.49112,160657019124.8668,-21776.808316288494,-19471.091648555688,0.0036911173931356033,-0.0035770126988051054,-399097048.874747
12312000.0,-119988603941.085,107515221185.16536,161111104093.4969,-20979.526959371204,-20243.726391497592,0.0038064856402486615,-0.0034107834586560976,-398471531.0409381
12528000.0,-124431384067.29347,103063009528.07835,161570892409.14362,-20157.326061077492,-20980.45561856731,0.0039138229694381365,-0.0032417092923459623,-397854068.81823045
12744000.0,-128694064834.25516,98455608520.09598,162036011962.23593,-19311.940299678856,-21680.664825714037,0.004013141733520998,-0.0030701983961736873,-397244641.1038525
12960000.0,-132771825368.62622,93700963329.5558,162506086472.48798,-18445.10168523832,-22343.827679287555,0.004104475316773326,-0.0028966483670482333,-396643216.63763005
13176000.0,-136660218132.44801,88807123537.72319,162980736318.9058,-17558.535016815284,-22969.503726569972,0.004187876828950557,-0.002721445201769915,-396049754.5001124
13392000.0,-140355166905.41434,83782224859.11719,163459579344.22318,-16653.953621761964,-23557.335890152273,0.004263417771633634,-0.0025449624284375823,-395464204.6238834
13608000.0,-143852963877.93826,78634471423.3137,163942231632.03357,-15733.055383089099,-24107.04777469479,0.0043311866891887745,-0.002367560366910757,-394886508.3139107
13824000.0,-147150265917.60013,73372118655.74034,164428308255.1556,-14797.519058224323,-24618.440813947513,0.0043912878157591805,-0.002189585514237609,-394316598.7730386
14040000.0,-150244090072.01056,68003456789.051544,164917423994.0305,-13849.00089002034,-25091.391285022837,0.004443839728777857,-0.0020113700500869994,-393754401.6290109
14256000.0,-153131808371.062,62536795030.95818,165409194024.20087,-12889.131508604321,-25525.84721584163,0.004488974018521662,-0.0018332314564936327,-393199835.4596889
14472000.0,-155811141991.01645,56980446408.91931,165903234572.1578,-11919.513120603642,-25921.825210444254,0.004526833982236895,-0.001655472245635657,-392652812.3134344
14688000.0,-158280154841.9292,51342713306.91716,166399163539.06763,-10941.716980440473,-26279.407215501556,0.004557573350372575,-0.0014783797889072936,-392113238.2219218
14904000.0,-160537246638.58685,45631873704.65319,166896601092.10098,-9957.281136759997,-26598.73724990553,0.004581355051474168,-0.0013022262402175482,-391581013.70294255
15120000.0,-162581145513.48624,39856168124.9418,167395170223.2804,-8967.708445641576,-26880.018117792522,0.004598350021331128,-0.0011272685462306608,-391056034.25106394
15336000.0,-164410900228.4472,34023787290.85215,167894497275.94284,-7974.464841034052,-27123.508123778345,0.004608736061046613,-0.0009537485361545284,-390538190.81428576
15552000.0,-166025872039.27847,28142860490.264614,168394212439.0781,-6978.977851847984,-27329.517807587723,0.004612696747816761,-0.0007818930836694707,-390027370.25511473
15768000.0,-167425726265.5446,22221444641.969826,168893950209.95038,-5982.635354319564,-27498.40671366033,0.004610420401376827,-0.0006119143336604851,-389523455.7947463
15984000.0,-168610423614.95428,16267514054.243563,169393349825.54465,-4986.784547622169,-27630.580209730993,0.004602099108297694,-0.00044400998656060934,-389026327.4392861
16200000.0,-169580211309.24228,10288950863.975183,169892055663.4964,-3992.7311402298674,-27726.486366828085,0.004587927805602697,-0.0002783636333205755,-388535862.387174
16416000.0,-170335614055.68283,4293536141.902215,170389717613.26547,-3001.738734219685,-27786.61291162533,0.00456810342452371,-0.00011514513428018769,-388051935.4172006
16632000.0,-170877424905.587,-1711058352.701344,170885991418.40408,-2015.0283945225633,-27811.484260629848,0.004542824094627846,4.5488964480010426e-05,-387574419.2566934
16848000.0,-171206696038.3244,-7717277786.434001,171380538990.844,-1033.7783900829486,-27801.658644302166,0.004512288408022084,0.00020339498339140587,-387103184.9296385
17064000.0,-171324729506.59998,-13717691255.430714,171873028698.19037,-59.12409395017846,-27757.725327889624,0.0044766947428813465,0.00035844163597696145,-386638102.08466303
17280000.0,-171233067975.93127,-19704998199.7708,172363135625.06012,907.8419705121923,-27680.3019345186,0.0044362406451443305,0.0005105095351010495,-386179039.3029516
17496000.0,-170933485488.5307,-25672034251.191982,172850541809.54166,1866.0699498633676,-27570.031874936773,0.004391122266877988,0.0006594906838427946,-385725864.38630056
17712000.0,-170427978279.11847,-31611776537.505642,173334936455.88263,2814.552359509013,-27427.58188722673,0.004341533859522996,0.0008052879555520198,-385278444.6256249
17928000.0,-169718755667.58957,-37517348467.7195,173816016124.53113,3752.32367316598,-27253.639688827494,0.00428766731999541,0.0009478145672537465,-384836647.0503317
18144000.0,-168808231050.9449,-43382024022.28134,174293484900.66687,4678.459814284988,-27048.911742300686,0.004229711787430192,0.0010869935501797087,-384400338.65905637
18360000.0,-167699013014.48215,-49199231573.0797,174767054542.36212,5592.077560369909,-26814.121135461868,0.004167853288206492,0.00122275722082744,-383969386.6323294
18576000.0,-166393896579.93497,-54962557257.892,175236444609.50797,6492.333870622511,-26550.00557576314,0.004102274426788632,0.0013550466555823496,-383543658.5277965
18792000.0,-164895854606.05237,-60665747933.87541,175701382574.63107,7378.425146808856,-26257.315498157353,0.004033154119846596,0.0014838111715884466,-383123022.4586606
19008000.0,-163208029355.03387,-66302713734.46658,176161603916.71115,8249.586436695721,-25936.81228509425,0.003960667371081543,0.0016090078162209142,-382707347.2560509
19224000.0,-161333724236.27502,-71867530253.71013,176616852199.08765,9105.090588849334,-25589.26659679053,0.0038849850841718744,0.0017306008672001957,-382296502.6160476
19440000.0,-159276395737.04,-77354440381.58684,177066879132.52057,9944.247367030459,-25215.456809475287,0.0038062739112697456,0.0018485613450934851,-381890359.2321083
19656000.0,-157039645547.95935,-82757855813.37517,177511444624.44135,10766.402531864724,-24816.167558935093,0.0037246961345135696,0.001962866539676263,-381488788.9136493
19872000.0,-154627212889.65063,-88072358255.46758,177950316815.39868,11570.936896919655,-24392.18838636502,0.0036404095780754393,0.002073499551373955,-381091664.69154394
20088000.0,-152042967045.27866,-93292700349.38797,178383272103.67117,12357.26536578395,-23944.312483268244,0.003553567548330858,0.002180448848771888,-380698860.91128474
20304000.0,-149290900102.50186,-98413806335.02975,178810095158.98126,13124.835956223415,-23473.335531933517,0.0034643187998187387,0.0022837078429701996,-380310253.31456244
20520000.0,-146375119906.99545,-103430772473.3666,179230578926.21063,13873.128816984263,-22980.054637851954,0.003372807524749886,0.002383274479368622,-379925719.10998803
20736000.0,-143299843228.58948,-108338867248.08789,179644524619.97592,14601.655242330238,-22465.26735030833,0.0032791733639199994,0.002479150847293579,-379545137.03367615
20952000.0,-140069389140.01263,-113133531364.78882,180051741710.88693,15309.956688936958,-21929.770767292917,0.003183551436986364,0.002571342807725783,-379168387.40038806
21168000.0,-136688172607.28024,-117810377565.50546,180452047904.26898,15997.603799326012,-21374.36072082415,0.0030860723901742523,0.0026598596392497687,-378795352.1459042
21384000.0,-133160698289.90784,-122365190275.53906,180845269112.09134,16664.19543560365,-20799.831038746197,0.002986862459588029,0.0027447137022264616,-378425914.861282
21600000.0,-129491554548.36017,-126793925098.66269,181231239418.805,17309.357726874667,-20206.97287906528,0.0028860435484115467,0.002825920121084888,-378059960.8196199
21816000.0,-125685407655.4579,-131092708175.95612,181609801041.75278,17932.74313333156,-19596.574132910944,0.0027837333163916542,0.002903496484538559,-377697376.99593025
22032000.0,-121746996207.8535,-135257835422.67357,181980804286.77673,18534.02952967216,-18969.418892250615,0.0026800452801063715,0.0029774625634546637,-377338052.0806916
22248000.0,-117681125733.15,-139285771656.71942,182344107499.60974,19112.919310175137,-18326.286978544405,0.0025750889226247003,0.0030478400460390545,-376981876.48762405
22464000.0,-113492663487.76517,-143173149631.49103,182699577013.6002,19669.138517462074,-17667.95352859997,0.0024689698112675437,0.003114652289946032,-376628742.35620874
22680000.0,-109186533440.23611,-146916768985.04874,183047087094.28287,20202.435996695862,-16995.188633971626,0.0023617897222780776,0.0031779240908780732,-376278543.54944074
22896000.0,-104767711434.30852,-150513595116.7946,183386519881.27402,20712.582576707926,-16308.757030341962,0.002253646771304807,0.003237681467205965,-375931175.6472746
23112000.0,-100241220525.85861,-153960758002.08148,183717765327.9326,21199.370279309765,-15609.417833425474,0.002144635548691198,0.003293951460113455,-375586535.9362091
23328000.0,-95612126487.44785,-157255550954.43985,184040721139.1983,21662.611557827066,-14897.924318040969,0.0020348472586516763,0.0033467619487514482,-375244523.39541465
23544000.0,-90885533474.10738,-160395429344.3962,184355292707.98355,22102.138565695826,-14175.023737110656,0.0019243698614951,0.0033961414798743283,-374905038.67979765
23760000.0,-86066579843.78813,-163378009283.16962,184661393050.4658,22517.80245577877,-13441.457177457802,0.0018132882181331937,0.0034421191114242817,-374567984.10035866
23976000.0,-81160434125.78731,-166201066278.86917,184958942740.59668,22909.472710895538,-12697.959449390157,0.0017016842361829519,0.003484724269527878,-374233263.602192
24192000.0,-76172291130.3722,-168862533872.1779,185247869844.11615,23277.036505911055,-11945.259007172135,0.0015896370170386711,0.0035239866183719034,-373900782.7404416
24408000.0,-71107368192.76192,-171360502257.8937,185528109852.33102,23620.398101591407,-11184.077897603804,0.0014772230033511002,0.0035599359424319946,-373570448.6545127
24624000.0,-65970901544.596,-173693216898.11108,185799605615.8921,23939.478270315245,-10415.131734038492,0.0013645161264083019,0.0035926020405374006,-373242170.0408191
24840000.0,-60768142806.011055,-175859077132.26175,186062307278.77835,24234.21375361944,-9639.129693282413,0.0012515879529652722,0.0036220146312675736,-372915857.1243233
25056000.0,-55504355591.46248,-177856634788.69254,186316172212.6715,24504.55675145994,-8856.774532928617,0.0011385078311174292,0.0036482032691911056,-372591421.6291163
