time,x,y,radius,v_x,v_y,a_x,a_y,total_energy
0,149600000000.0,0.0,149600000000.0,0.0,29800.0,-0.005927853062712689,-0.0,-442786818.18181825
86400.0,149577874407.0005,2574720000.0,149600032403.72247,-512.1665046183763,29800.0,-0.00592697249164139,-0.0001020224058817399,-442655468.8331279
172800.0,149511500914.71585,5149059203.410495,149600139426.5771,-1024.2569278961923,29791.18526413182,-0.005924329749857648,-0.00020402928494406313,-442524080.83424246
259200.0,149400892673.84088,7722256075.006016,149600334126.059,-1536.1190182838932,29773.55713391265,-0.005919923831503515,-0.00030598992384337566,-442392654.51371264
345600.0,149246075993.35855,10293549310.105122,149600629533.48465,-2047.600437325797,29747.119604492582,-0.005913754277467039,-0.00040787351263869024,-442261190.258065
432000.0,149047090346.00806,12862178064.204826,149601038650.02542,-2558.5488068989494,29711.879333000597,-0.005905821180643558,-0.0005096491549378597,-442129688.5117945
518400.0,148803988369.65164,15427382183.298256,149601574442.73428,-3068.8117569065525,29667.845646013968,-0.005896125190998686,-0.0006112858782799984,-441998149.77733827
604800.0,148516835864.502,17988402434.798897,149602249840.56793,-3578.236973408839,29615.030546130576,-0.00588466752042315,-0.0007127526447502445,-441866574.615027
691200.0,148185711786.17285,20544480738.9931,149603077730.40482,-4086.6722471733992,29553.448717624156,-0.005871449947369888,-0.0008140183618226428,-441734963.6430169
777600.0,147810708234.5175,23094860400.940693,149604070953.06128,-4593.9655226261575,29483.11753116268,-0.005856474821263739,-0.00091505189342652,-441603317.53719944
864000.0,147391930438.2217,25638786342.74197,149605242299.307,-5099.9649471833445,29404.057047570626,-0.005839745066674181,-0.0010158220712313457,-441471637.03108793
950400.0,146929496735.1186,28175505336.087643,149606604505.8811,-5604.518920943994,29316.290020616238,-0.005821264187241715,-0.001116297706144678,-441339922.9156847
1036800.0,146423538548.19543,30704266235.006653,149608170251.5108,-6107.476146721679,29219.841898805338,-0.005801036269348505,-0.0012164476000173909,-441208176.03932244
1123200.0,145874200357.26407,33224320208.725323,149609952152.93378,-6608.68568039339,29114.740826163834,-0.005779065985524128,-0.001316240557550005,-441076397.30748504
1209600.0,145281639666.26843,35734920974.54964,149611962760.9262,-7107.996981542675,29001.017641991515,-0.005755358597577317,-0.0014156453983935329,-440944587.68260425
1296000.0,144646026966.20486,38235325030.68111,149614214556.33783,-7605.259964373355,28878.705879570312,-0.005729919959444838,-0.001514630969437879,-440812748.1838317
1382400.0,143967545693.63278,40724791888.875175,149616719946.13583,-8100.325048869388,28747.84176381088,-0.005702756519748752,-0.0016131661572804416,-440680879.8867882
1468800.0,143246392184.7556,43202584306.84971,149619491259.4588,-8593.04321217568,28608.46420782185,-0.005673875324053587,-0.0017112199008671842,-440548983.9232897
1555200.0,142482775625.0541,45667968520.34993,149622540743.68335,-9083.26604017391,28460.614808386923,-0.005643284016815004,-0.0018087612042980488,-440417061.481045
1641600.0,141676917994.456,48120214474.77474,149625880560.50372,-9570.845779226727,28304.33784033557,-0.005610990843012008,-0.0019057591497882562,-440285113.8033337
1728000.0,140829054008.02908,50558596056.26833,149629522782.0275,-10055.635388062965,28139.680249793866,-0.005577004649454728,-0.0020021829107766094,-440153142.18865573
1814400.0,139939431052.18646,52982391322.17971,149633479386.88797,-10537.488589775854,27966.691646302766,-0.005541334885760303,-0.0020980017651716126,-440021147.990357
1900800.0,139008309116.39542,55390882730.7918,149637762256.3759,-11016.259923905543,27785.42429379194,-0.005503991604989477,-0.002193185108725824,-439889132.6162281
1987200.0,138035960720.3842,57783357370.2208,149642383170.5914,-11491.804798576633,27595.93310039803,-0.005464985463936986,-0.0022877024685285497,-439757097.5280818
2073600.0,137022670836.84273,60159107186.38546,149647353804.61884,-11963.979542660789,27398.275607117164,-0.005424327723068977,-0.002381523516606618,-439625044.2412978
2160000.0,135968736809.61703,62517429209.94512,149652685724.7253,-12432.641457933949,27192.511975282352,-0.005382030246101137,-0.002474618083622682,-439492974.3243489
2246400.0,134874468267.39857,64857625782.10476,149658390384.58566,-12897.648871197087,26978.70497285735,-0.00533810549921149,-0.00256695617266015,-439360889.3982969
2332800.0,133740187032.91344,67179004779.1843,149664479121.53485,-13358.861186328959,26756.919959539515,-0.005292566549882205,-0.0026585079730835656,-439228791.136263
2419200.0,132566227027.61852,69480879835.84915,149670963152.85007,-13816.138936238782,26527.224870665093,-0.005245427065365155,-0.0027492438744629666,-439096681.26287454
2505600.0,131352934171.91455,71762570566.89807,149677853572.06436,-14269.343834686331,26289.690199911493,-0.005196701310766239,-0.0028391344805504337,-438964561.553682
2592000.0,130100666280.88925,74023402787.50446,149685161345.31317,-14718.338827936534,26044.388980791937,-0.005146404146744097,-0.0029281506232968512,-438832433.8345532
2678400.0,128809792955.6059,76262708731.80644,149692897307.71597,-15162.988146215224,25791.396766939088,-0.005094551026819045,-0.003016263376896589,-438700299.98104006
2764800.0,127480695469.95633,78479827269.74098,149701072159.79492,-15603.15735493239,25530.791611175224,-0.005041157994288576,-0.00310344407184757,-438568161.9177188
2851200.0,126113766653.09966,80674104122.01723,149709696463.93164,-16038.713405638922,25262.654043367595,-0.004986241678746308,-0.0031896643090140765,-438436021.61750615
2937600.0,124709410767.51137,82844892073.12407,149718780640.86502,-16469.524686682602,24987.06704706878,-0.0049298192922014915,-0.003274895973679272,-438303881.1009467
3024000.0,123268043382.67023,84991551182.26698,149728334966.23068,-16895.46107352881,24704.11603494289,-0.004871908624796912,-0.0033591112495744155,-438171742.43547875
3110400.0,121790091244.41347,87113448992.12924,149738369567.1449,-17316.393978711265,24413.88882297966,-0.0048125280401232744,-0.0034422826328714246,-438039607.7346697
3196800.0,120275992139.99362,89209960735.35315,149748894418.8339,-17732.196401377914,24116.47560349957,-0.00475169647012882,-0.003524382946125417,-437907479.1574314
3283200.0,118726194758.87373,91280469538.63676,149759919341.3111,-18142.742976397043,23811.968916954334,-0.0046894334096232665,-0.0036053853521536275,-437775358.9072057
3369600.0,117141158549.30028,93324366624.3424,149771453996.1036,-18547.910022988493,23500.46362252826,-0.00462575891037579,-0.0036852633678370558,-437643249.23112756
3456000.0,115521353570.69627,95341051509.51366,149783507883.02948,-18947.57559284496,23182.056867547137,-0.004560693574807235,-0.003763990877831123,-437511152.4191642
3542400.0,113867260341.92038,97329932202.19804,149796090337.0283,-19341.619517708306,22856.84805570253,-0.004494258549277197,-0.0038415421481714494,-437379070.8032278
3628800.0,112179369685.44037,99290425394.97353,149809210525.04584,-19729.923456365857,22524.938814100515,-0.00442647551696725,-0.003917891839760949,-437247006.7562664
3715200.0,110458182567.4728,101221956655.57774,149822877442.97534,-20112.370941031826,22186.432959145168,-0.004357366690362031,-0.003993015021724297,-437114962.6913292
3801600.0,108704209934.1432,103123960614.5396,149837099912.65643,-20488.847423079107,21841.43646126819,-0.004286954803330479,-0.004066887184615902,-436982941.0606105
3888000.0,106917972543.72484,104995881149.71432,149851886578.93378,-20859.24031808686,21490.057408517376,-0.004215263102810032,-0.004139484253467487,-436850944.354469
3974400.0,105100000795.01614,106837171567.62384,149867245906.77673,-21223.439050169647,21132.405969017786,-0.004142315340097142,-0.004210782600661449,-436718975.1004275
4060800.0,103250834551.92088,108647294781.50565,149883186178.46207,-21581.33509555404,20768.594352320637,-0.004068135761747969,-0.004280759058616188,-436587035.8621473
4147200.0,101371022964.297,110425723485.97504,149899715490.8209,-21932.822025369067,20398.7367696562,-0.003992749100093703,-0.004349390932269759,-436455129.2383832
4233600.0,99461124285.144,112171940328.20645,149916841752.5515,-22277.795547617163,20022.949393108094,-0.003916180563375455,-0.004416656011348217,-436323257.86191857
4320000.0,97521705684.2007,113885438075.54176,149934572681.59976,-22616.1535482928,19641.35031372761,-0.0038384558255042294,-0.004482532582405246,-436191424.39847773
4406400.0,95553343058.02863,115565719779.43465,149952915802.60825,-22947.796131616367,19254.059498607796,-0.0037596010154519644,-0.004546999440619712,-436059631.5456201
4492800.0,93556620836.65881,117212298935.64224,149971878444.43604,-23272.625659351415,18861.19874693825,-0.0036796427062802165,-0.00461003590133809,-435927882.03161484
4579200.0,91532131786.88252,118824699640.57668,149991467737.74997,-23590.546789174026,18462.89164506264,-0.0035986079038135546,-0.0046716218113487746,-435796178.6142976
4665600.0,89480476812.26906,120402456743.73166,150011690612.68924,-23901.466512063518,18059.263520562105,-0.003516524034965226,-0.004731737559875624,-435664524.0799086
4752000.0,87402264749.99675,121945115996.10074,150032553796.60437,-24205.294188684515,17650.44139538885,-0.0034334189357232083,-0.0047903640892782585,-435532921.2419139
4838400.0,85298112164.5852,123452234194.5064,150054063811.8722,-24501.941584731,17236.55393807521,-0.003349320838805186,-0.004847482905446893,-435401372.9398103
4924800.0,83168643138.62003,124923379321.76117,150076226973.7874,-24791.322905203768,16817.731415044596,-0.0032642583609916,-0.004903076087879894,-435269882.03791463
5011200.0,81014489060.56317,126358130682.58453,150099049388.53284,-25073.35482759344,16394.105641051774,-0.00317826049014623,-0.004957126299432355,-435138451.4241374
5097600.0,78836288409.74483,127756079035.2013,150122536951.22882,-25347.956533942073,15965.809928780818,-0.0030913565719343857,-0.005009616795724498,-435007084.0087437
5184000.0,76634686538.63463,129116826718.55025,150146695344.06317,-25615.049741757204,15532.97903763022,-0.0030035762962491567,-0.005060531434198998,-434875782.72309816
5270400.0,74410335452.49258,130439987775.03398,150171530034.5025,-25874.558733753132,15095.749121715427,-0.0029149496833566226,-0.00510985468281665,-434744550.5184009
5356800.0,72163893586.50218,131725188068.74367,150197046273.58655,-26126.410386395146,14654.25767712007,-0.0028255070697713386,-0.00515757162838024,-434613390.36440766
5443200.0,69896025580.48987,132972065399.09535,150223249094.3056,-26370.53419722339,14208.643488428017,-0.0027352790938738715,-0.005203667984476916,-434482305.24814266
5529600.0,67607402051.33747,134180269609.81683,150250143310.06253,-26606.862310934095,13759.04657456921,-0.0026442966812824814,-0.005248130099029711,-434351298.1725986
5616000.0,65298699363.195816,135349462693.2276,150277733513.22025,-26835.329544196902,13305.608134013044,-0.0025525910299914545,-0.005290944961449335,-434220372.15542895
5702400.0,62970599395.60958,136479318889.75662,150306024073.73508,-27055.873409188163,12848.470489343821,-0.002460193595288973,-0.0053321002093778816,-434089530.22763133
5788800.0,60623789309.665184,137569524782.64642,150335019137.877,-27268.43413582113,12387.777031253572,-0.002367136074467693,-0.005371584135016488,-433958775.43222433
5875200.0,58258961312.27501,138619779387.79446,150364722627.03763,-27472.95469265514,11923.672161988148,-0.0022734503913415497,-0.005409385691029482,-433828110.822916
5961600.0,55876812418.71293,139629794238.6862,150395138236.6261,-27669.380806467052,11456.3012382832,-0.0021791686805826046,-0.005445494496018124,-433697539.4627689
6048000.0,53478044213.51727,140599293466.37735,150426269435.05383,-27857.66098046939,10985.810513827235,-0.0020843232718920314,-0.005479900839557521,-433567064.42285866
6134400.0,51063362609.878845,141528013874.4864,150458119462.8086,-28037.74651116086,10512.347081289465,-0.0019889466740195525,-0.005512595686790802,-433436688.78093106
6220800.0,48633477607.6327,142415705009.16074,150490691331.61826,-28209.59150379615,10036.05881395074,-0.0018930715586459282,-0.005543570682575211,-433306415.6200532
6307200.0,46189103049.973495,143262129223.98477,150523987823.70465,-28373.15288646316,9557.094306976242,-0.0017967307441432608,-0.005572818155175366,-433176248.0272653
6393600.0,43730956379.015175,144067061739.79968,150558011491.12784,-28528.390422757137,9075.60281836909,-0.0016999571792280898,-0.005600331119499388,-433046189.09223205
6480000.0,41259758390.316635,144830290699.40985,150592764655.22128,-28675.266723042445,8591.734209644343,-0.0016027839265223963,-0.005626103279874267,-432916241.9058912
6566400.0,38776232986.495705,145551617217.15305,150628249406.11786,-28813.74725429398,8105.638886263206,-0.001505244146037791,-0.005650129032357371,-432786409.5591059
6652800.0,36281106930.0545,146230855423.3155,150664467602.36682,-28943.800348511646,7617.467737867529,-0.0014073710785982658,-0.005672403466581593,-432656695.14131856
6739200.0,33775109595.539646,146867832503.3763,150701420870.64246,-29065.397209702536,7127.372078354879,-0.00130919802921696,-0.005692922367132134,-432527101.73920584
6825600.0,31258972721.161255,147462388732.0693,150739110605.5433,-29178.51191942688,6635.503585834663,-0.0012107583504424996,-0.005711682214453724,-432397632.43534094
6912000.0,28733430159.994915,148014377502.2536,150777537969.4832,-29283.121440905114,6142.014242505861,-0.0011120854256904528,-0.00572868018528736,-432268290.3068575
6998400.0,26199217630.891033,148523665348.58813,150816703892.67294,-29379.20562168477,5647.056274497033,-0.0010132126525755063,-0.005743914152636541,-432139078.4241216
7084800.0,23657072469.21598,148990131966.00824,150856609073.19336,-29466.747194867294,5150.782091709236,-0.0009141734262599217,-0.0057573826852633184,-432009999.8494091
7171200.0,21107733377.549397,149413670223.0068,150897253977.15872,-29545.73177889615,4653.344227702485,-0.0008150011228338223,-0.005769085046715269,-431881057.6355915
7257600.0,18551940176.461815,149794186169.72513,150938638838.9709,-29616.147875908995,4154.895279666286,-0.0007157290827427753,-0.005779021193884915,-431752254.8248311
7344000.0,15990433555.496523,150131599040.86255,150980763661.66342,-29677.986868657972,3655.5878485146295,-0.0006163905942780691,-0.005787191775103848,-431623594.4472835
7430400.0,13423954824.479143,150425841253.41748,151023628217.33563,-29731.2430160036,3155.5744791456573,-0.0005170188771449634,-0.005793598127774246,-431495079.51981354
7516800.0,10853245665.277866,150676858399.27573,151067232047.67557,-29775.91344698892,2655.0076009059626,-0.0004176470661240632,-0.005798242275541201,-431366713.0447206
7603200.0,8279047884.136657,150884609232.66537,151111574464.57224,-29811.99815350204,2154.039468299203,-0.0003183081948408013,-0.005801126925009661,-431238498.0084767
7689600.0,5702103164.703,151049065652.50137,151156654550.81555,-29839.499981536286,1652.822101978368,-0.00021903517965784727,-0.005802255462010546,-431110437.3804778
7776000.0,3123152821.870896,151170212679.64545,151202471160.88412,-29858.424621058723,1151.5072300606569,-0.00011986080370503961,-0.005801631947420948,-430982534.1118095
7862400.0,542937556.558809,151248048429.11157,151249022921.8199,-29868.78059449884,650.246229803487,-2.0817701061226616e-05,-0.005799261112544019,-430854791.1340264
7948800.0,-2037802788.4587479,151282584077.24927,151296308234.18872,-29870.57924387053,149.1900696796838,7.806165889785661e-05,-0.00579514835405458,-430727211.3579484
8035200.0,-4618329471.548559,151273843823.94104,151344325273.12637,-29863.834716541754,-351.5107481106319,0.00017674498697181228,-0.005789299728517063,-430599797.6724739
8121600.0,-7197905093.928794,151221864849.8536,151393071989.46918,-29848.56394966739,-851.7062446545061,0.0002752001894143337,-0.005781721946482805,-430472552.9434073
8208000.0,-9775793839.977072,151126697268.78464,151442546110.9678,-29824.78665330199,-1351.2470208306204,0.0003733953830052286,-0.005772422366174349,-430345480.0123084
8294400.0,-12351261716.023205,150988404075.15158,151492745143.5842,-29792.52529221034,-1849.9843132680842,0.0004712989099027759,-0.005761408986764692,-430218581.6953572
8380800.0,-14923576787.514944,150807061086.67032,151543666372.86948,-29751.80506639474,-2347.7700497245537,0.0005688793522638375,-0.005748690441260081,-430091860.7822405
8467200.0,-17492009414.446712,150582756882.2759,151595306865.4228,-29702.653890359143,-2844.4569038494246,0.0006661055466195002,-0.005734275988995195,-429965320.0350572
8553600.0,-20055832484.943096,150315592735.33994,151647663470.42963,-29645.10237113122,-3339.8983492986094,0.000762946597994408,-0.005718175507750106,-429838962.1872447
8640000.0,-22614321646.89075,150005682542.24136,151700732821.27786,-29579.183785064502,-3833.9487131682185,0.0008593718937583576,-0.005700399485498824,-429712789.9425283
8726400.0,-25166755537.51431,149653152746.352,151754511337.2514,-29504.93405344378,-4326.463228715317,0.0009553511171991119,-0.005680959011799493,-429586805.97388947
8812800.0,-27712416010.793926,149258142257.49863,151808995225.2995,-29422.391716917777,-4817.298087334793,0.0010508542608058428,-0.005659865768836787,-429461012.92255926
8899200.0,-30250588362.62425,148820802366.96802,151864180481.88022,-29331.59790878415,-5306.310489762292,0.0011458516392530453,-0.005637132022127405,-429335413.3970353
8985600.0,-32780561553.61672,148341296658.12262,151920062894.87772,-29232.59632715269,-5793.3586964741,0.0012403139020751963,-0.005612770610899755,-429210009.9721188
9072000.0,-35301628429.449486,147819800912.69748,151976638045.5905,-29125.433206013393,-6278.302077255838,0.001334212046022944,-0.0055867949381594555,-429084805.1879829
9158400.0,-37813085938.6715,147256503012.85178,152033901310.79114,-29010.157285237012,-6761.001159912816,0.0014275174270920127,-0.005559218960452261,-428959801.54925615
9244800.0,-40314235347.86971,146651602839.0498,152091847864.8538,-28886.81977953626,-7241.317678095891,0.0015202017722165762,-0.00553005717733663,-428835001.52414036
9331200.0,-42804382454.110886,146005312163.84906,152150472681.94998,-28755.474346416748,-7719.114618217776,0.0016122371906192698,-0.005499324620578106,-428710407.54354835
9417600.0,-45282837794.57205,145317854541.67523,152209770538.31006,-28616.177053147243,-8194.256265435724,0.0017035961848105477,-0.005467036843078038,-428586022.00026953
9504000.0,-47748916853.27609,144589465194.66553,152269736014.5491,-28468.98634277961,-8666.608248677667,0.0017942516612305828,-0.005433209907549358,-428461847.24816173
9590400.0,-50201940264.85174,143820390894.66403,152330363498.05545,-28313.96299924929,-9136.037584689931,0.0018841769405274333,-0.00539786037495234,-428337885.6013704
9676800.0,-52641234015.2399,143010889841.45453,152391647185.4409,-28151.17011158772,-9602.412721085813,0.0019733457674656575,-0.005361005292703254,-428214139.3335727
9763200.0,-55066129639.27093,142161231537.3178,152453581085.04987,-27980.673037278684,-10065.603578375374,0.0020617323204601633,-0.0053226621826692345,-428090610.67725164
9849600.0,-57475964415.04033,141271696658.00262,152516159019.52716,-27802.539364790926,-10525.481590957996,0.0021493112207304934,-0.00528284902896251,-427967301.8229961
9936000.0,-59870081555.013115,140342576920.20023,152579374628.4413,-27616.838875319812,-10981.919747060356,0.00223605754107136,-0.0052415842655474795,-427844214.91882783
10022400.0,-62247830393.78985,139374174945.61472,152643221370.9631,-27423.643503771247,-11434.792627603658,0.0023219468142356686,-0.005198886763673947,-427721352.06955916
10108800.0,-64608566572.47049,138366804121.72208,152707692528.59647,-27223.027299021287,-11883.976443985086,0.002406955040926878,-0.0051547758191501074,-427598715.3361747
